Id,sog,stw,head,wspeedms,wspeedbf,wdir,drafta,draftf,trim,me_power
1,0.001799967,0.001293333,0.598933667,0.007529333,0.006666667,0.691891333,0.036116833,0.030210167,-0.005906833,2.413333333
2,0.160784467,0.157506667,6.60527,0.130702667,0.113333333,11.552914,0.614759,0.513635167,-0.1011265,95.792222
3,0.520736,0.5168,16.72961033,0.348649667,0.313333333,31.98362933,1.701082333,1.420014667,-0.281074,269.9783327
4,1.012975333,1.02256,26.114218,0.533149,0.503333333,52.84457567,2.789126167,2.326176667,-0.4629575,584.7766657
5,1.3812676,1.385413333,40.02929067,0.712707667,0.663333333,76.07115533,3.988357667,3.3857065,-0.6026605,893.0722217
6,1.671928333,1.661073333,61.95242967,0.965172,0.833333333,104.1953997,5.525773667,4.904669833,-0.621111883,1242.906664
7,2.249246133,2.25966,87.64737033,1.269322,1.033333333,135.237553,7.292643333,6.729222,-0.563426017,1675.648882
8,2.9711478,2.99975,112.186795,1.560424,1.233333333,166.2779913,9.0614765,8.554351667,-0.507128083,1979.722216
9,3.769131467,3.799993333,135.1327537,1.882959667,1.476666667,196.5971277,10.82892033,10.38194667,-0.446977017,2384.598326
10,4.698241467,4.73284,157.563029,2.23881,1.766666667,226.182187,12.59565367,12.21194817,-0.3837098,2939.331656
11,5.745285833,5.781926667,178.9071703,2.573453333,2.033333333,254.989703,14.32809467,14.01321583,-0.3148844,3640.056322
12,6.738364,6.772706667,194.192511,2.775323333,2.153333333,273.5788397,15.519512,15.36242417,-0.157092433,4378.464885
13,7.5689788,7.584351667,203.3955133,2.865290333,2.153333333,282.5420817,16.2030305,16.28939483,0.086363017,5085.460445
14,8.302114467,8.277711667,211.887659,2.971575333,2.163333333,291.0102913,16.883677,17.21701717,0.3333414,5679.027662
15,9.1858402,9.14488,215.8688733,3.116338,2.243333333,296.9568883,17.45237067,17.99172,0.53935315,6266.662656
16,10.1569238,10.09519333,211.8960063,3.236815667,2.363333333,297.776182,17.683233,18.30722667,0.623997,6813.073207
17,10.84257233,10.72366667,203.9597373,3.306534,2.463333333,295.4894853,17.68549117,18.317223,0.631731667,7278.574875
18,11.37510067,11.20986333,197.1667183,3.378115333,2.563333333,293.040456,17.68590283,18.326794,0.640888183,7873.017655
19,11.837277,11.6266,192.11743,3.411298,2.62,291.257187,17.68750267,18.33386383,0.646358483,8373.758212
20,12.17031133,11.91243333,187.3600913,3.431645333,2.63,290.9041223,17.6896295,18.33848283,0.648856167,8721.079885
21,12.375332,12.07676,182.352821,3.513501,2.656666667,290.949514,17.68883967,18.34169267,0.652863483,8915.915778
22,12.476324,12.15554667,177.4654797,3.634650667,2.73,290.610325,17.6856675,18.343756,0.6581026,8978.035547
23,12.53739233,12.223955,174.5167377,3.763036667,2.83,290.1865467,17.682857,18.3451345,0.662289317,8986.05109
24,12.56052967,12.25426833,173.042039,3.896913,2.93,289.7411123,17.68183583,18.34591917,0.664093617,8974.646647
25,12.55538333,12.25602667,171.5642063,3.991927667,2.99,289.6244707,17.6822435,18.34616783,0.66393615,8975.946093
26,12.53351267,12.26832,170.0179387,4.039118667,3,289.8650087,17.68209733,18.34637467,0.664290483,8972.534987
27,12.489732,12.26390667,167.6234717,4.086503,3,290.153959,17.68004133,18.34656483,0.6665385,8964.381653
28,12.372621,12.18710833,163.9735213,4.146193,3,290.4692327,17.67643667,18.3459175,0.669499667,8747.426649
29,12.16022333,12.02053,161.374241,4.213967667,3,290.704334,17.67150933,18.34396283,0.6724729,8504.136648
30,11.98673433,11.88498333,160.2951107,4.268324667,3,290.2233003,17.66607633,18.34173533,0.675671817,8482.999971
31,11.91148833,11.84927,159.82698,4.296248667,3,289.9019897,17.66276867,18.340427,0.67766285,8495.205521
32,11.855499,11.82561,159.2709207,4.308617667,3,290.4070773,17.66113783,18.33977933,0.6786433,8507.825525
33,11.794077,11.78359,157.7534593,4.314255667,3,290.98513,17.659056,18.33899433,0.679942333,8526.292755
34,11.729359,11.75235,155.3845417,4.314853333,3,291.5763497,17.657079,18.33810333,0.6810265,8541.537755
35,11.66296133,11.72675,152.271693,4.304096,3,291.9153627,17.6581915,18.3363075,0.6781123,8569.559415
36,11.609475,11.70250333,148.6058293,4.275861667,3,292.0405737,17.6657565,18.3317145,0.665951867,8617.025521
37,11.58066367,11.70610333,145.427566,4.233087333,3,292.1978587,17.67916733,18.32468283,0.645509267,8672.872745
38,11.637574,11.78412833,143.2555163,4.175798333,2.976666667,292.2840817,17.69360183,18.31901483,0.625405433,8927.154972
39,11.79195133,11.95161333,139.592931,4.101229333,2.906666667,292.2872897,17.7068885,18.316244,0.609345933,9199.11442
40,11.91784333,12.09642333,134.390227,4.012382,2.813333333,292.2327053,17.721709,18.31307633,0.59135645,9261.24887
41,11.966152,12.15564667,129.438323,3.903401667,2.72,291.6951197,17.73630633,18.30921667,0.572898867,9283.741093
42,12.00127567,12.188255,125.2699387,3.789076333,2.626666667,290.7544013,17.74780517,18.30676783,0.558953117,9298.371647
43,12.04090133,12.22557667,122.207627,3.695025333,2.576666667,289.965756,17.75752133,18.30562667,0.548098617,9307.364977
44,12.08094133,12.26149,120.0831627,3.655154,2.573333333,290.6492437,17.76455217,18.3053765,0.540819167,9304.358313
45,12.11896733,12.28770333,118.6498923,3.669293667,2.573333333,291.8587467,17.76560583,18.3066125,0.5410026,9283.186657
46,12.14412733,12.30670333,117.8176217,3.704486667,2.573333333,292.157397,17.7593165,18.31069167,0.551370083,9245.66221
47,12.16430933,12.31303,117.584887,3.756036667,2.573333333,292.3558713,17.74784017,18.31724967,0.569401133,9199.839433
48,12.187127,12.32174333,117.5374883,3.815644333,2.596666667,292.0202253,17.73663083,18.3233055,0.586662733,9161.80666
49,12.20395333,12.34283667,117.7324877,3.882709333,2.666666667,291.4668933,17.72910833,18.3279155,0.598796133,9128.18554
50,12.20308033,12.35054667,118.3438537,3.957349333,2.76,291.7162487,17.72260517,18.33286933,0.610259667,9097.719977
51,12.179832,12.34817667,119.487351,4.031477667,2.853333333,292.390397,17.71675083,18.33680983,0.6200616,9087.611643
52,12.139035,12.34756167,120.5557297,4.101226667,2.946666667,292.918989,17.7123565,18.33840467,0.6260516,9030.611643
53,12.04383767,12.2978,121.8695753,4.164211,2.996666667,293.204687,17.70678983,18.33897417,0.63218545,8872.403315
54,11.86564467,12.16665333,123.2600393,4.186581333,3,291.9305563,17.7009615,18.33858967,0.637633533,8636.212762
55,11.68485267,12.03870667,124.1292383,4.166684,3,290.0976527,17.69864333,18.33719317,0.6385609,8457.452753
56,11.52823167,11.92348167,126.683371,4.150162,3,289.7775917,17.69942067,18.33558283,0.636174817,8397.401085
57,11.40561833,11.83760833,131.5646517,4.118653,3,289.794933,17.701558,18.334118,0.6325732,8392.671083
58,11.34749033,11.82649333,137.1612673,4.063351333,3,290.2337337,17.70524,18.33323317,0.628007517,8405.524407
59,11.310095,11.83818,142.771937,4.004849667,2.996666667,291.3086527,17.70699433,18.33341017,0.626432567,8400.74719
60,11.19859967,11.78232667,145.4670057,3.934086,2.946666667,291.8756803,17.703373,18.33401833,0.630664167,8409.086647
61,11.05964133,11.71065333,144.8486763,3.850666,2.853333333,292.2645107,17.69661267,18.33483133,0.638236183,8412.51776
62,10.98422133,11.70250667,144.180879,3.758457,2.76,293.0666573,17.69119067,18.33633883,0.6451631,8446.205537
63,10.97592967,11.75020667,143.1534107,3.657459,2.666666667,294.3077357,17.6896655,18.33826533,0.648614133,8581.350862
64,11.05879867,11.87898,141.947613,3.531634667,2.573333333,296.4484623,17.69064633,18.3406895,0.65005545,8802.521188
65,11.15668767,12.00376667,141.289749,3.374121333,2.476666667,299.7448033,17.6906065,18.34368467,0.6530896,8970.845637
66,11.24814733,12.116525,138.8126187,3.201964667,2.38,302.1179063,17.688788,18.34668433,0.657908367,9021.064535
67,11.31820267,12.20431167,133.8734733,3.046764667,2.286666667,303.7226867,17.6860925,18.34955717,0.663474867,9016.897873
68,11.325777,12.21572667,128.3097907,2.921638667,2.193333333,306.1509403,17.68195783,18.35187833,0.669929567,8995.936433
69,11.30978367,12.19812667,122.7694587,2.815494667,2.103333333,309.590254,17.67901067,18.35333117,0.6743269,8992.054663
70,11.37314867,12.24896,119.9697297,2.729761,2.06,313.964262,17.679961,18.35498333,0.67502315,8965.67711
71,11.48397133,12.315835,119.831949,2.667508333,2.06,318.4110703,17.68303233,18.3570615,0.674027283,8936.13656
72,11.55540133,12.32144,119.643467,2.635436,2.06,322.320418,17.6868645,18.35836,0.671495483,8937.489903
73,11.62711167,12.32083667,119.4579043,2.631979333,2.06,325.6266107,17.69195667,18.35878733,0.6668332,8946.73791
74,11.70480567,12.32155,119.1245733,2.666073333,2.06,328.2771223,17.69779017,18.35890817,0.661121667,8955.787027
75,11.78212433,12.32547,118.5513087,2.739517333,2.063333333,315.5819343,17.7031935,18.35898467,0.655794283,8965.66425
76,11.85450067,12.32712333,118.0281103,2.822966,2.066666667,287.8088277,17.708409,18.35913433,0.6507274,8978.76536
77,11.923419,12.32429667,117.6435063,2.924248,2.096666667,269.71965,17.71390633,18.35915967,0.645256633,8992.604247
78,11.99559433,12.31970333,117.2457033,3.052556333,2.173333333,266.9859613,17.719846,18.3588055,0.638964833,9007.634577
79,12.08008433,12.32159667,116.8502993,3.18937,2.266666667,268.673002,17.72582817,18.3580925,0.63226965,9019.674683
80,12.17402467,12.32618333,116.4486283,3.332022,2.36,268.992512,17.73090667,18.35723517,0.6263324,9027.03557
81,12.26939033,12.33218167,115.968409,3.481493667,2.453333333,268.65574,17.73513267,18.356433,0.62130295,9030.322233
82,12.36493,12.34105,115.3972223,3.634674,2.546666667,268.012561,17.73858233,18.35590567,0.6173245,9032.273893
83,12.460404,12.35047333,114.802852,3.798462667,2.64,266.6957373,17.74093283,18.35563783,0.6147029,9032.50167
84,12.55548533,12.35914,114.4013167,3.973879,2.733333333,264.6848653,17.74205967,18.35545917,0.613392717,9031.82945
85,12.646058,12.36536,114.331699,4.159946,2.826666667,276.913479,17.74212267,18.35524017,0.61310815,9031.19501
86,12.72900133,12.36821333,114.6778097,4.368878333,2.95,304.7843043,17.74109983,18.35491467,0.6138062,9030.560567
87,12.804045,12.36964667,115.36387,4.583567,3.086666667,323.8586803,17.73975917,18.35453833,0.6147729,9031.674453
88,12.86824433,12.37291,116.1229173,4.756393,3.146666667,326.9212397,17.739476,18.35414467,0.614664283,9032.036677
89,12.91892033,12.3756,116.8717677,4.892056333,3.146666667,324.121862,17.73950117,18.35363667,0.61413235,9031.454457
90,12.959507,12.38000667,117.5914357,5.016416667,3.146666667,321.5093477,17.73923967,18.35296683,0.61372445,9030.973937
91,12.98463267,12.3816,118.3759047,5.125588333,3.146666667,319.222112,17.739278,18.35223883,0.61295435,9034.746743
92,12.98969533,12.37674,119.2640403,5.216725,3.146666667,317.5210143,17.74075617,18.35041533,0.609648467,9047.988967
93,12.97743933,12.36276,120.1751737,5.276059667,3.146666667,316.861278,17.74465533,18.34622367,0.601558817,9074.872853
94,12.94936533,12.3444,121.176905,5.307935333,3.146666667,316.911758,17.74996367,18.34091967,0.590949933,9108.585617
95,12.90408333,12.32039333,122.437655,5.338947,3.146666667,317.121958,17.755094,18.33635917,0.5812608,9138.211167
96,12.85188533,12.30092,123.787341,5.356710333,3.116666667,317.2650457,17.760327,18.33232367,0.5719933,9162.29617
97,12.79562533,12.28872667,125.0650827,5.347455333,3.043333333,317.267448,17.76564917,18.328334,0.562681417,9181.65673
98,12.73461767,12.27107667,126.1777057,5.353569333,3,317.5316613,17.76872483,18.325229,0.55649735,9197.578077
99,12.67367467,12.25785333,127.126522,5.380924333,3,318.0694477,17.7684175,18.32385367,0.5554244,9202.87553
100,12.59628467,12.23169,127.810573,5.401631333,3,318.5653983,17.76475,18.32413767,0.5593744,9203.353273
101,12.51697733,12.18762667,127.92449,5.418922,3,319.0868773,17.758854,18.32510933,0.566246933,9209.94852
102,12.453104,12.1517,127.5589543,5.430923333,3,319.7167437,17.7530395,18.326205,0.573162583,9213.59824
103,12.37723467,12.11072,127.0222197,5.419727,3,320.281776,17.7487495,18.3270135,0.578262433,9057.382134
104,12.18467033,11.93830833,126.3860047,5.387582,3,320.640836,17.74541433,18.326015,0.580598083,8579.761034
105,11.83410433,11.59906333,125.5153887,5.339772667,3,320.8116417,17.7407935,18.322407,0.58160785,7937.164593
106,11.45269233,11.23273667,123.009987,5.296632667,3,320.7897037,17.73384683,18.31741233,0.583556983,7415.649813
107,11.14781533,10.92331667,117.5147143,5.265875,3,320.5863047,17.7257465,18.31283383,0.5870768,7024.056478
108,10.94029767,10.66876333,109.895508,5.226564333,3,320.237367,17.71747,18.30930517,0.591824767,6704.435688
109,10.85456367,10.48063667,101.3393033,5.193716,3,319.773769,17.71007083,18.30631767,0.59623995,6438.494896
110,10.863455,10.31636667,93.38291467,5.180621333,3,319.3144903,17.706987,18.30230567,0.595315333,6113.863781
111,10.78583067,10.02121667,87.48145967,5.165911667,3,318.6621457,17.70553933,18.296389,0.590849033,5729.947948
112,10.69827267,9.740576667,82.86046067,5.129261667,3,317.3185613,17.699474,18.29116467,0.59169115,5487.719337
113,10.79683233,9.665708333,78.65187867,5.104169667,3,315.5688927,17.69132117,18.28970767,0.598385267,5550.570998
114,11.10954233,9.802171667,74.81897467,5.103255333,3,313.8990047,17.68571167,18.291979,0.606264,5916.213224
115,11.61952967,10.12211,71.144722,5.100716333,3,312.3123493,17.68195867,18.29703517,0.615071917,6430.304118
116,12.175592,10.46631667,68.89199167,5.074037667,3,311.253274,17.6786605,18.30370633,0.6250393,6824.024116
117,12.651914,10.74167667,69.387263,5.026838,3,310.718687,17.67642333,18.31000183,0.633573,7095.542112
118,13.01552133,10.94559667,71.9752,4.980572667,3,310.2372643,17.67720517,18.314151,0.636944233,7182.783225
119,13.09055733,10.89293,74.27013533,4.91953,3,309.7941407,17.67841267,18.31430983,0.635900567,7095.523226
120,13.06121767,10.79427,74.41099967,4.834571,3,309.100528,17.67603417,18.31249067,0.63646575,7226.39322
121,13.323805,11.06481667,72.773798,4.745567667,3,308.0954747,17.67603833,18.31311617,0.63708845,7589.50988
122,13.653474,11.41477667,70.65239433,4.670292,3,307.524639,17.68377333,18.315198,0.631433567,7822.250985
123,13.77817667,11.58783833,68.33390867,4.601118667,3,307.428085,17.69440867,18.31473867,0.620341617,7907.85487
124,13.75996867,11.70038667,65.68142967,4.527079667,3,307.3431957,17.707303,18.30807417,0.600786583,8035.303746
125,13.68682733,11.82546667,62.88056633,4.451267,3,307.239179,17.72652633,18.29543417,0.5689247,8200.882066
126,13.591974,11.95063333,60.038498,4.372391333,3,306.656672,17.74660783,18.28449267,0.537904883,8333.772956
127,13.48353633,12.04979833,56.539462,4.292327333,3,305.582314,17.7593005,18.27997333,0.5206935,8427.907738
128,13.38934467,12.14338333,51.67642567,4.204479,3,304.4191267,17.764142,18.27938817,0.515262567,8641.914955
129,13.47618667,12.42508333,47.63042767,4.111664,3,303.2155137,17.7689015,18.2816865,0.512793883,8988.720506
130,13.59734267,12.74773667,45.564831,4.026976333,3,302.3212143,17.77708533,18.28568383,0.508597067,9175.55717
131,13.525796,12.85240333,43.79102533,3.949591667,3,301.9248477,17.78275417,18.28870083,0.505938083,9178.80661
132,13.395412,12.85976333,41.674689,3.883195,3,301.674642,17.78215783,18.29081167,0.508644617,9160.21384
133,13.30653233,12.85347667,39.44028967,3.816031333,3,301.3192207,17.77506333,18.2945255,0.51945195,9124.64274
134,13.275729,12.83261,37.03488567,3.746272667,3,300.929914,17.76027983,18.3036645,0.543372633,9060.473307
135,13.28463,12.79538667,34.47235033,3.685168333,3,300.5803637,17.73960667,18.31776833,0.578151333,8976.984907
136,13.31036467,12.76786333,31.63635367,3.636001333,3,300.5819983,17.720726,18.32930317,0.6085675,8924.13795
137,13.35646767,12.780385,29.287126,3.595118,3,300.9577433,17.70916233,18.33426867,0.6250965,8903.616623
138,13.40694667,12.81928667,28.465098,3.563631333,2.986666667,301.2639987,17.70368633,18.335613,0.631921033,8883.413847
139,13.44351633,12.85415333,28.36129533,3.551174667,2.963333333,301.6802127,17.70035883,18.33602233,0.6356654,8864.66219
140,13.46611633,12.88646667,28.16662733,3.551163,2.953333333,302.3869897,17.6973595,18.33633167,0.63898075,8846.323313
141,13.46995533,12.91127167,27.9288,3.554302333,2.953333333,303.1500933,17.6950015,18.33668433,0.641694283,8828.351653
142,13.46508533,12.92405667,27.663365,3.555383,2.953333333,303.8628343,17.69342483,18.33691067,0.643494967,8816.10499
143,13.46134533,12.92673,27.43168933,3.562959667,2.953333333,304.515099,17.69237183,18.33691533,0.644549733,8810.515547
144,13.46196067,12.92521667,27.26134867,3.581532667,2.953333333,305.1293513,17.69176967,18.33688583,0.6451223,8804.639433
145,13.46000267,12.91345333,27.06647433,3.604268667,2.953333333,305.7004987,17.69162133,18.337093,0.645477933,8802.941183
146,13.45581733,12.88969,26.97833267,3.631139667,2.953333333,305.9446267,17.69191233,18.33765033,0.645746067,8809.672583
147,13.452173,12.86448333,27.28899133,3.667973333,2.953333333,305.868723,17.69227017,18.33829183,0.6460339,8818.3559
148,13.434543,12.85396333,27.54358467,3.724073667,2.966666667,305.8955923,17.69006933,18.33684717,0.64679175,8816.20457
149,13.38159367,12.83959667,27.54671433,3.784047667,2.99,305.767092,17.68250833,18.33072317,0.648226933,8808.47401
150,13.307666,12.80798333,27.681842,3.830930667,3,305.2152093,17.67144417,18.3213325,0.649899183,8808.560117
151,13.230699,12.780795,27.95600533,3.868883333,3,304.4271007,17.65991067,18.31131833,0.651422317,8810.52345
152,13.14746167,12.76026667,28.39277233,3.898845,3,303.486524,17.6485835,18.3013045,0.652743167,8810.671773
153,13.05195967,12.74912,28.91704033,3.914492667,3,302.402741,17.63754717,18.29144517,0.653923517,8806.328987
154,12.935789,12.74328667,29.231776,3.916087333,3,301.1621263,17.62666367,18.2818285,0.655189,8799.572873
155,12.80217667,12.738525,29.369591,3.908869333,3,299.759428,17.61566283,18.27244233,0.65680305,8790.426197
156,12.658428,12.733875,29.34275267,3.892839,3,298.1935183,17.60406433,18.2631635,0.659120833,8775.04064
157,12.50524467,12.71822667,28.227365,3.863864667,3,296.421219,17.59191217,18.25397633,0.662082433,8765.974753
158,12.36184433,12.68578,27.28183267,3.820226667,3,294.5239543,17.58204467,18.24682383,0.664796233,8772.514413
159,12.257632,12.66018,27.30330733,3.768978667,3,292.6547463,17.57733817,18.24417867,0.666859733,8780.268297
160,12.187361,12.65020667,27.40365233,3.717515333,3,290.835983,17.57605267,18.24450283,0.668471433,8783.471073
161,12.13787767,12.63899,27.94679267,3.667783,2.996666667,289.08403,17.57548583,18.24511883,0.669651133,8788.18719
162,12.095379,12.62514,28.26313067,3.621246333,2.99,287.4851763,17.57485583,18.24564033,0.67079705,8792.85053
163,12.05440767,12.61175333,28.00107067,3.578194667,2.946666667,286.308137,17.5740785,18.24616483,0.67209725,8797.609423
164,12.025475,12.60430667,27.88493867,3.543550333,2.876666667,285.4087567,17.5736495,18.246484,0.6728493,8802.239977
165,12.00770033,12.60414167,28.03519133,3.516009333,2.796666667,284.6293837,17.57363967,18.2463545,0.672735433,8805.207747
166,12.000162,12.60793833,28.32016867,3.487364333,2.696666667,284.1623233,17.5739965,18.24583,0.67185955,8809.85441
167,11.99984233,12.61547833,29.384406,3.457615667,2.596666667,284.0083677,17.574872,18.245214,0.670370317,8809.099413
168,11.99977433,12.62277,30.29137867,3.420476333,2.496666667,283.9858037,17.5757115,18.24472033,0.669033967,8800.364423
169,11.99159133,12.62751,30.31874967,3.371929,2.396666667,283.896179,17.576015,18.2444645,0.668467217,8792.7411
170,11.968756,12.63005167,30.02375367,3.316483667,2.296666667,283.9019067,17.57582017,18.2445065,0.668698283,8787.67888
171,11.933815,12.63346,29.22278133,3.259806667,2.2,284.0267993,17.5752945,18.24474767,0.669464533,8783.475543
172,11.90417233,12.64122,28.76098633,3.207175333,2.106666667,284.0716027,17.57482317,18.24488283,0.670071933,8781.668317
173,11.88673167,12.64666,29.09105567,3.167584667,2.05,283.8550777,17.57453383,18.24468717,0.6701666,8781.409427
174,11.86911133,12.64309333,29.43139133,3.128971667,2.02,283.613227,17.573872,18.24430817,0.670448233,8780.867767
175,11.84899,12.63522667,29.45972667,3.080161667,2,283.8265253,17.5726435,18.24398233,0.671345033,8780.67555
176,11.829375,12.63144667,29.37539267,3.028020667,2,284.5219527,17.57124783,18.243772,0.672523967,8780.150553
